"Time differences (ps)"	"Normalized correlation g(2)"
-50000	1.9325396615055364
-49900	1.8232149253829666
-49800	1.7517456260339443
-49700	1.6845669364228564
-49600	1.6231989582854283
-49500	1.5547208268679946
-49400	1.5296881837683884
-49300	1.4856542689722154
-49200	1.4680505101617187
-49100	1.4648877178406128
-49000	1.4702080739156516
-48900	1.4925437623228417
-48800	1.5319438186020453
-48700	1.58625067899933
-48600	1.6979291210352807
-48500	1.8290256368566264
-48400	1.9916520048093074
-48300	2.244945085967026
-48200	2.5619108156356916
-48100	2.971847928882914
-48000	3.471740740007174
-47900	4.1188627595674125
-47800	4.901004138137965
-47700	5.832556806668361
-47600	7.0562387039272645
-47500	8.41417990932862
-47400	10.043091508007985
-47300	11.84070988158293
-47200	13.850774731610459
-47100	16.002380667449962
-47000	18.190738740416116
-46900	20.314075687525115
-46800	22.39781643619546
-46700	24.035333772120623
-46600	25.30420191936246
-46500	26.022670649422068
-46400	26.1341774670685
-46300	25.654585369447155
-46200	24.544543335818684
-46100	22.958733976678115
-46000	20.989809944594892
-45900	18.92776742231353
-45800	16.735020668529717
-45700	14.579173158492141
-45600	12.528139114909822
-45500	10.762933233183729
-45400	9.18043377298385
-45300	7.870817092116602
-45200	6.810227400439069
-45100	5.989936371855796
-45000	5.340951001780797
-44900	4.882297079680571
-44800	4.544760941039751
-44700	4.262953693452216
-44600	4.09228549696215
-44500	3.9681765455711546
-44400	3.848824041546784
-44300	3.7515865660002237
-44200	3.691444476359348
-44100	3.588102076099956
-44000	3.5070953642477534
-43900	3.4277313429809317
-43800	3.3454742248622455
-43700	3.247991571616375
-43600	3.1676958750921735
-43500	3.0927695701828726
-43400	2.990407880720722
-43300	2.8715947676348343
-43200	2.7604066809975047
-43100	2.6361751407568543
-43000	2.496521923229571
-42900	2.3683920575698827
-42800	2.244209552869094
-42700	2.1347622278968696
-42600	2.037181503571275
-42500	1.9583813910128671
-42400	1.858814727322857
-42300	1.7959511652196345
-42200	1.7158516108548814
-42100	1.6228066739665314
-42000	1.5356214840917035
-41900	1.4643728446720607
-41800	1.372749938439712
-41700	1.2961809429450304
-41600	1.2279970247667693
-41500	1.1613822438640957
-41400	1.1242133046486178
-41300	1.070740048428989
-41200	1.0206012089199838
-41100	0.9930922710573412
-41000	0.9683783589668388
-40900	0.9345683542319153
-40800	0.911251955027483
-40700	0.8765347928051106
-40600	0.8593478360834418
-40500	0.838090929553218
-40400	0.8229634655057577
-40300	0.8007503659482228
-40200	0.7851080287322103
-40100	0.7716477730400617
-40000	0.7558338114345319
-39900	0.7515186839266664
-39800	0.7408044184667958
-39700	0.7232742129660922
-39600	0.7166544150847076
-39500	0.6997616716022115
-39400	0.7002029914609704
-39300	0.6872085733975118
-39200	0.6843890298554406
-39100	0.6763472013180549
-39000	0.6619797881384573
-38900	0.6601164376236972
-38800	0.6545263860794168
-38700	0.6511674515988625
-38600	0.6441553693985811
-38500	0.6393498864920945
-38400	0.6315777534239504
-38300	0.629175011970707
-38200	0.6212557722829767
-38100	0.6328526774603651
-38000	0.6239527269753926
-37900	0.6215990210620114
-37800	0.6196375994675271
-37700	0.621427396672494
-37600	0.6198092238570444
-37500	0.6283659255629823
-37400	0.6238301381257373
-37300	0.6319945555127783
-37200	0.6363587185605059
-37100	0.6447683136468574
-37000	0.6460677554532033
-36900	0.6633527832545963
-36800	0.6616855748992846
-36700	0.6734050689263285
-36600	0.6839967455365438
-36500	0.6914011120557221
-36400	0.7039296924904906
-36300	0.7249169035514729
-36200	0.7389410679520357
-36100	0.7527690901931502
-36000	0.7577461974891541
-35900	0.776771986955652
-35800	0.7946944767752524
-35700	0.8112194537087828
-35600	0.822178896867964
-35500	0.8506685455278487
-35400	0.8601814402610976
-35300	0.8770006304338006
-35200	0.8835959105452541
-35100	0.9037495174285806
-35000	0.9291254093072214
-34900	0.926256830225288
-34800	0.9440322134253022
-34700	0.9621263276344201
-34600	0.987109935194164
-34500	1.000668261966037
-34400	1.0109657253370796
-34300	1.0411225823522758
-34200	1.0645370526364324
-34100	1.0875347208317612
-34000	1.1135725924985405
-33900	1.1419641700787009
-33800	1.156503207647816
-33700	1.1748424995562443
-33600	1.2021062597195764
-33500	1.2283893090856661
-33400	1.2417760114680216
-33300	1.2629593646884523
-33200	1.271932868483218
-33100	1.2925523129952343
-33000	1.292822008464476
-32900	1.3234937386482246
-32800	1.3320749581240934
-32700	1.35688694129432
-32600	1.3783399899839923
-32500	1.4095265933362928
-32400	1.4279149207845834
-32300	1.4579001534102625
-32200	1.482197263411937
-32100	1.5082351350787162
-32000	1.5493269174831628
-31900	1.5570500150114446
-31800	1.5786256525507723
-31700	1.5880159584343658
-31600	1.5926007814114729
-31500	1.5764435710269085
-31400	1.5809793584641534
-31300	1.5620271223074487
-31200	1.5483216889159894
-31100	1.5131877246047891
-31000	1.4937451330494633
-30900	1.462779189626542
-30800	1.450373198041429
-30700	1.403593293012978
-30600	1.382336386482754
-30500	1.351394960829764
-30400	1.3206741951061534
-30300	1.2884333276468174
-30200	1.2503081954040285
-30100	1.2320669745753243
-30000	1.1935005224737765
-29900	1.1536101107959515
-29800	1.127915487908207
-29700	1.092095026038937
-29600	1.0627717732013966
-29500	1.0359738506667546
-29400	1.00841587726425
-29300	0.9759298321056034
-29200	0.9586202865342793
-29100	0.9336121612046042
-29000	0.9086775891847224
-28900	0.8899705307273281
-28800	0.87582377747711
-28700	0.8584161608260618
-28600	0.8488542305529506
-28500	0.8325744313187309
-28400	0.8119549868067144
-28300	0.8091844788045054
-28200	0.8023930565336034
-28100	0.8065855951918136
-28000	0.8230125010456197
-27900	0.871263472269934
-27800	0.9755865833265687
-27700	1.1804570688704557
-27600	1.5582759035079974
-27500	2.2641670175929725
-27400	3.4711277957588975
-27300	5.4829088896816005
-27200	8.495333727800409
-27100	12.53858368490045
-27000	17.38054903304444
-26900	22.62019260947012
-26800	26.84739939436286
-26700	28.601694868469632
-26600	27.402064903513093
-26500	24.306402236478355
-26400	20.641240809485097
-26300	17.583384543684048
-26200	15.456615108784701
-26100	14.361308254884795
-26000	13.897750778798358
-25900	13.76520771455108
-25800	13.45836782386394
-25700	12.646339283747432
-25600	11.318873666370378
-25500	9.806470510403383
-25400	8.288992176060658
-25300	6.8693642615127715
-25200	5.561218646841387
-25100	4.417832446106685
-25000	3.444109213294876
-24900	2.6422800654696865
-24800	2.0253149029246447
-24700	1.5752176825303557
-24600	1.2557021047888604
-24500	1.0360964395164098
-24400	0.8796975851262165
-24300	0.7950132077843561
-24200	0.725946649888577
-24100	0.6833347657484052
-24000	0.6499905986421719
-23900	0.6301066872280872
-23800	0.6109583089119339
-23700	0.6112034866112445
-23600	0.5950953117665421
-23500	0.5868573410697079
-23400	0.5697439376578323
-23300	0.5680276937626585
-23200	0.5617756624302397
-23100	0.5614078958812739
-23000	0.5553765244782346
-22900	0.5539299760523024
-22800	0.5581715502503748
-22700	0.5710678972341091
-22600	0.5863424679011557
-22500	0.5934771389510924
-22400	0.6314796823442261
-22300	0.6733805511563974
-22200	0.725946649888577
-22100	0.818574784688099
-22000	0.9343476943025358
-21900	1.0939583765536973
-21800	1.3289121658029874
-21700	1.6414401791141324
-21600	2.041423077769347
-21500	2.5949852872726837
-21400	3.33255336010858
-21300	4.296910804806727
-21200	5.629083834010544
-21100	7.317867826861542
-21000	9.470209295798977
-20900	12.193103788801968
-20800	15.333707528120328
-20700	18.888563508193773
-20600	22.457958525836336
-20500	25.858867428512696
-20400	28.341487776191357
-20300	29.535601242913412
-20200	29.124953114338187
-20100	27.153430198642276
-20000	23.87420298813374
-19900	19.931402334441223
-19800	15.871235116088755
-19700	12.186459473150654
-19600	9.127426354392911
-19500	6.781296431920425
-19400	5.074001522771482
-19300	3.8877337424273666
-19200	3.115252365209649
-19100	2.5962111757692363
-19000	2.2578414329507606
-18900	2.0419869864777613
-18800	1.9308479353802936
-18700	1.852881426999542
-18600	1.8389553336787032
-18500	1.850601274395954
-18400	1.8703135614205213
-18300	1.9154998114034538
-18200	1.9599750460583858
-18100	2.0284286597058885
-18000	2.0951905472281482
-17900	2.1729854312193826
-17800	2.247740111739166
-17700	2.3214895636917765
-17600	2.403550539651014
-17500	2.5071871531495793
-17400	2.5937593987761307
-17300	2.6697890033323293
-17200	2.76099510747585
-17100	2.815130343483617
-17000	2.8924103543062993
-16900	2.9571372669242817
-16800	3.0015634660393515
-16700	3.0637405305845045
-16600	3.1054452572372275
-16500	3.1641898339920327
-16400	3.2158242574668323
-16300	3.260152385502178
-16200	3.301072543517107
-16100	3.357536967668324
-16000	3.401521846924635
-15900	3.4247401750493434
-15800	3.457888199996128
-15700	3.4778211469500753
-15600	3.476963025002488
-15500	3.4522491129119857
-15400	3.4316541861699004
-15300	3.380559153633584
-15200	3.3574879321284623
-15100	3.2806982767044013
-15000	3.2390916211314025
-14900	3.1988334429046117
-14800	3.1292274940703497
-14700	3.0934315499710108
-14600	3.043513370391385
-14500	3.0043339740415607
-14400	2.9775115337369877
-14300	2.9419852851068904
-14200	2.918129494963975
-14100	2.883289743891947
-14000	2.8866241606025707
-13900	2.8575460854643406
-13800	2.8366569454830826
-13700	2.8035334383062285
-13600	2.785022522008283
-13500	2.7503053597859104
-13400	2.68190078167827
-13300	2.63514539441975
-13200	2.5786809702685325
-13100	2.5144198952792403
-13000	2.454228770098503
-12900	2.406639778662327
-12800	2.3379164695455827
-12700	2.316095654306945
-12600	2.2690705715791832
-12500	2.2532811277435845
-12400	2.226017367580252
-12300	2.2083890909998245
-12200	2.2306757438671525
-12100	2.2374181305981926
-12000	2.261298438511039
-11900	2.27086036878415
-11800	2.3061169219450055
-11700	2.3383087538644793
-11600	2.356672563542839
-11500	2.368343022030021
-11400	2.368195915410434
-11300	2.3655479962578805
-11200	2.3222250967897082
-11100	2.2738025011758767
-11000	2.245827725684544
-10900	2.194585586528641
-10800	2.148688321217708
-10700	2.095509278237252
-10600	2.0673383605864712
-10500	2.029728101512234
-10400	2.0065833266973194
-10300	1.9550469743022438
-10200	1.931877681717398
-10100	1.8929924986067461
-10000	1.854278939885612
-9900	1.7968338049371526
-9800	1.7569924287991898
-9700	1.7109235390987394
-9600	1.6728719601657436
-9500	1.6199626126545292
-9400	1.5770810330451157
-9300	1.5427806729115712
-9200	1.4997519866825715
-9100	1.4582679199592283
-9000	1.4342405054267953
-8900	1.4169064420855402
-8800	1.39363907842097
-8700	1.3724557252005394
-8600	1.357843134321631
-8500	1.3465649601533463
-8400	1.3281521149351248
-8300	1.3188353623613243
-8200	1.305031857890141
-8100	1.3111613003729043
-8000	1.3052034822796583
-7900	1.2834562203508133
-7800	1.3053260711293135
-7700	1.3005696237626891
-7600	1.312289117789733
-7500	1.3199141442382907
-7400	1.3352867859850615
-7300	1.3492373970758311
-7200	1.355906230497078
-7100	1.366939226966052
-7000	1.398248419168008
-6900	1.4230849201081657
-6800	1.4469161924811502
-6700	1.492641833402566
-6600	1.5141193998621691
-6500	1.553960776000132
-6400	1.6040505799692752
-6300	1.6318046955312282
-6200	1.6847140430424428
-6100	1.8573191433570626
-6000	0.6276058746951196
-5900	0.0005639087084142413
-5800	0
-5700	0
-5600	0
-5500	0
-5400	0
-5300	0
-5200	0
-5100	0
-5000	0
-4900	0
-4800	0
-4700	0
-4600	0
-4500	0
-4400	0
-4300	0
-4200	0
-4100	0
-4000	0
-3900	0
-3800	0
-3700	0
-3600	0
-3500	0
-3400	0
-3300	0
-3200	0
-3100	0
-3000	0
-2900	0
-2800	0
-2700	0
-2600	0
-2500	0
-2400	0
-2300	0
-2200	0
-2100	0
-2000	0
-1900	0
-1800	0
-1700	0
-1600	0
-1500	0
-1400	0
-1300	0
-1200	0
-1100	0
-1000	0
-900	0
-800	0
-700	0
-600	0
-500	0
-400	0
-300	0
-200	0
-100	0
0	1917.724038973829
100	0
200	0
300	0
400	0
500	0
600	0
700	0
800	0
900	0
1000	0
1100	0
1200	0
1300	0
1400	0
1500	0
1600	0
1700	0
1800	0
1900	0
2000	0
2100	0
2200	0
2300	0
2400	0
2500	0
2600	0
2700	0
2800	0
2900	0
3000	0
3100	0
3200	0
3300	0
3400	0
3500	0
3600	0
3700	0
3800	0
3900	0
4000	0
4100	0
4200	0
4300	0
4400	0
4500	0
4600	0
4700	0
4800	0
4900	0
5000	0
5100	0
5200	0
5300	0
5400	0
5500	0
5600	0
5700	0
5800	0.0005148731685521334
5900	0.6074522678117933
6000	1.860163204669065
6100	1.6855721649900297
6200	1.6327608885585394
6300	1.602604031543343
6400	1.5551621467267536
6500	1.515418841668515
6600	1.4918817825347033
6700	1.4469161924811502
6800	1.4238204532060974
6900	1.3993026832750435
7000	1.367306993515018
7100	1.355513946178181
7200	1.3496541991646591
7300	1.335924248003269
7400	1.3197180020788422
7500	1.3115290669218702
7600	1.3004715526829649
7700	1.30640485300628
7800	1.2822303318542607
7900	1.3056448021384173
8000	1.3114555136120771
8100	1.3043208425621404
8200	1.3185411491221517
8300	1.3283482570945733
8400	1.3463443002239668
8500	1.3576715099321137
8600	1.3731177049886778
8700	1.3938352205804183
8800	1.4156070002791943
8900	1.4342650231967264
9000	1.4579491889501246
9100	1.499065489124502
9200	1.5424374241325365
9300	1.577252657434633
9400	1.6190554551670802
9500	1.6733868333342958
9600	1.709378919593083
9700	1.7578015152069146
9800	1.7968828404770147
9900	1.852930462539404
10000	1.8910065592423309
10100	1.9332261590636057
10200	1.9550469743022438
10300	2.0032243922167647
10400	2.0306597767696144
10500	2.066921558497643
10600	2.0951660294582175
10700	2.147143701712052
10800	2.1966205614329186
10900	2.244871532657233
11000	2.2736799123262212
11100	2.32227413232957
11200	2.3638317523627066
11300	2.369372768367125
11400	2.367533935622296
11500	2.3578494164995294
11600	2.3382597183246174
11700	2.3059943330953505
11800	2.2711545820233225
11900	2.260783565342487
12000	2.238693054634607
12100	2.2301608706986005
12200	2.2087813753187215
12300	2.2248159968536307
12400	2.2536488942925503
12500	2.269511891437942
12600	2.3155562633684617
12700	2.3364454033497193
12800	2.4064191187329476
12900	2.4553811052852623
13000	2.5132675600924808
13100	2.57792091940067
13200	2.634262754702232
13300	2.6801600200131652
13400	2.749643379997772
13500	2.786444552664284
13600	2.803606991616022
13700	2.835872376845289
13800	2.856810552366409
13900	2.886354465133329
14000	2.8824316219443604
14100	2.9189630991416307
14200	2.9406858433005447
14300	2.978541280074092
14400	3.00362295871356
14500	3.042998497222833
14600	3.0929166768024587
14700	3.1303798292571092
14800	3.196111970442265
14900	3.2394839054502995
15000	3.279325281588262
15100	3.357855698677428
15200	3.381098544572067
15300	3.429472104646037
15400	3.4530581993197105
15500	3.476350080754212
15600	3.476448151833936
15700	3.4574713979073004
15800	3.427780378520794
15900	3.3996830141798062
16000	3.360086815741154
16100	3.3013177212164173
16200	3.2602749743518333
16300	3.216142988475936
16400	3.165195062559206
16500	3.1049549018386062
16600	3.0638386016642287
16700	3.0032061566247323
16800	2.957161784694213
16900	2.8925084253860236
17000	2.8169691762284463
17100	2.7617551583437128
17200	2.6700341810316397
17300	2.5952549827419253
17400	2.507113599839786
17500	2.4055609967853604
17600	2.3219308835505355
17700	2.248475644837098
17800	2.173671928777452
17900	2.0957054203967003
18000	2.028330588626164
18100	1.9620100209626632
18200	1.9163824511209717
18300	1.8709019878988666
18400	1.8491792437399528
18500	1.8400586333256006
18600	1.8523665538309897
18700	1.928788442706085
18800	2.040025564883277
18900	2.2558800113562762
19000	2.593440667767027
19100	3.106352414724676
19200	3.880353893678119
19300	5.060663855928989
19400	6.7587646013537865
19500	9.10254081791289
19600	12.150442869121935
19700	15.837130898114658
19800	19.88567669351981
19900	23.841079480956882
20000	27.119031767429007
20100	29.11590605723363
20200	29.54212296971507
20300	28.358846357302543
20400	25.892383220008444
20500	22.48897350479912
20600	18.922398030698627
20700	15.372396569071531
20800	12.221887650701026
20900	9.493280517304099
21000	7.336844580788178
21100	5.642936374021589
21200	4.310812380357634
21300	3.340080315477414
21400	2.6012863541449645
21500	2.0457382052772126
21600	1.64487266690448
21700	1.331903333734576
21800	1.0963611180069406
21900	0.9366278469061239
22000	0.8184031602985816
22100	0.7272951272347851
22200	0.6734050689263285
22300	0.6321416621323646
22400	0.5933545501014372
22500	0.5867837877599148
22600	0.570994343924316
22700	0.5579263725510643
22800	0.554640991380303
22900	0.5553765244782346
23000	0.5604026673141007
23100	0.5624866777582402
23200	0.5679051049130032
23300	0.5695723132683148
23400	0.5866121633703973
23500	0.5944088142084726
23600	0.6119880552490382
23700	0.6104189179734508
23800	0.6298615095287766
23900	0.650039634182034
24000	0.6824521260308873
24100	0.725897614348715
24200	0.7941060502969072
24300	0.879011087568147
24400	1.0346744088604087
24500	1.2525393124677544
24600	1.5708290017126971
24700	2.021367541965745
24800	2.6349002167204394
24900	3.433787232153902
25000	4.406627825248193
25100	5.550112097062619
25200	6.853967101996069
25300	8.27832694614065
25400	9.789577766920885
25500	11.304236557721538
25600	12.63488948518963
25700	13.452900361169315
25800	13.761064211432732
25900	13.899368951613807
26000	14.35211409116065
26100	15.44195348236593
26200	17.559357129151614
26300	20.603483443791276
26400	24.272077358574883
26500	27.374114645791693
26600	28.607382991093637
26700	26.876796200510192
26800	22.67231738834354
26900	17.43414487811372
27000	12.577983741179654
27100	8.53399825098168
27200	5.507402141842723
27300	3.485985564337116
27400	2.2748322475129807
27500	1.5627871731753114
27600	1.1835217901118373
27700	0.9772537916818803
27800	0.871287990039865
27900	0.8232086432050683
28000	0.8075663059890558
28100	0.8024666098433966
28200	0.8073456460596763
28300	0.8129356976039566
28400	0.8330402689474209
28500	0.848094179685088
28600	0.8580483942770959
28700	0.8766818994246969
28800	0.8901911906567077
28900	0.9080891627063771
29000	0.9325333793276379
29100	0.9589880530832451
29200	0.9753414056272581
29300	1.0076558263963873
29400	1.0362680639059272
29500	1.0618891334838787
29600	1.0923156859683165
29700	1.1275722391291723
29800	1.1523106689896057
29900	1.1939663601024664
30000	1.231061746008151
30100	1.2508721041124427
30200	1.287379063539782
30300	1.3211645505047744
30400	1.3508065343514186
30500	1.382287350942892
30600	1.4035197397031847
30700	1.4493924872441868
30800	1.462215280918128
30900	1.493598026429877
31000	1.5141929531719622
31100	1.5475616380481267
31200	1.5613161069794481
31300	1.57997412989698
31400	1.5777675306031853
31500	1.59299306573037
31600	1.5870597654070548
31700	1.5792631145689795
31800	1.5572706749408243
31900	1.5496211307223353
32000	1.5088235615570615
32100	1.481780461323109
32200	1.4582679199592283
32300	1.428625936112584
32400	1.409551111106224
32500	1.3783154722140611
32600	1.3571566367635617
32700	1.3324917602129214
32800	1.3240331295867078
32900	1.293287846093166
33000	1.2920619575966132
33100	1.2730116503601845
33200	1.2629103291485901
33300	1.2415308337687112
33400	1.2278008826073208
33500	1.2038470213846812
33600	1.1743521441576232
33700	1.155130212531677
33800	1.1436558962039436
33900	1.1135725924985405
34000	1.0877308629912095
34100	1.0646841592560188
34200	1.0414167955914486
34300	1.0109902431070106
34400	1.0014528306038306
34500	0.9869137930347156
34600	0.9618566321651785
34700	0.9442038378148195
34800	0.9255703326672186
34900	0.9304738866534293
35000	0.9045586038363053
35100	0.8832281439962884
35200	0.8768290060442833
35300	0.8601078869513045
35400	0.851722809634884
35500	0.821762094779136
35600	0.8121266111962319
35700	0.7946209234654593
35800	0.7764777737164793
35900	0.7584817305870857
36000	0.7525239124938397
36100	0.7393578700408636
36200	0.7241813704535413
36300	0.7040522813401459
36400	0.69181791414455
36500	0.6837515678372332
36600	0.6746064396529501
36700	0.6606803463321114
36800	0.6642599407420453
36900	0.6456999889042374
37000	0.6453077045853406
37100	0.6364813074101612
37200	0.6311854691050535
37300	0.6239772447453236
